freq,psd_x,psd_y,psd_z,psd_xyz
0.0,7.582e+02,3.476e+01,6.962e+01,8.625e+02
1.5,4.489e+02,3.519e+01,6.426e+01,5.484e+02
3.1,4.173e+01,2.084e+01,2.926e+01,9.183e+01
4.6,3.285e+02,2.524e+01,3.371e+01,3.874e+02
6.1,1.073e+03,3.124e+01,3.782e+01,1.142e+03
7.6,1.751e+03,2.681e+01,3.869e+01,1.816e+03
9.2,2.598e+03,2.598e+01,3.726e+01,2.661e+03
10.7,3.618e+03,2.262e+01,3.821e+01,3.679e+03
12.2,4.836e+03,2.233e+01,3.907e+01,4.897e+03
13.7,6.274e+03,2.026e+01,4.018e+01,6.334e+03
15.3,7.962e+03,2.108e+01,4.338e+01,8.027e+03
16.8,1.025e+04,2.303e+01,4.868e+01,1.032e+04
18.3,1.299e+04,2.603e+01,5.287e+01,1.307e+04
19.9,1.613e+04,3.062e+01,7.392e+01,1.624e+04
21.4,1.954e+04,3.587e+01,8.696e+01,1.966e+04
22.9,2.397e+04,4.297e+01,1.072e+02,2.412e+04
24.4,2.961e+04,6.538e+01,1.454e+02,2.982e+04
26.0,3.610e+04,9.507e+01,1.912e+02,3.639e+04
27.5,4.405e+04,1.434e+02,2.343e+02,4.443e+04
29.0,5.530e+04,2.198e+02,3.278e+02,5.585e+04
30.5,6.939e+04,3.784e+02,5.071e+02,7.027e+04
32.1,7.650e+04,7.437e+02,4.647e+02,7.771e+04
33.6,8.330e+04,1.345e+03,2.586e+02,8.490e+04
35.1,1.083e+05,1.937e+03,5.357e+02,1.107e+05
36.7,1.393e+05,2.610e+03,9.573e+02,1.429e+05
38.2,1.683e+05,4.284e+03,1.221e+03,1.738e+05
39.7,2.071e+05,5.837e+03,1.830e+03,2.147e+05
41.2,2.586e+05,8.249e+03,1.828e+03,2.686e+05
42.8,3.230e+05,1.692e+04,1.445e+03,3.414e+05
44.3,4.073e+05,4.163e+04,9.082e+03,4.580e+05
45.8,4.961e+05,7.056e+04,5.427e+04,6.209e+05
47.3,6.252e+05,6.458e+04,1.057e+05,7.955e+05
48.9,8.762e+05,3.765e+04,1.183e+05,1.032e+06
50.4,1.252e+06,1.381e+04,1.189e+05,1.384e+06
51.9,1.757e+06,3.774e+03,1.190e+05,1.879e+06
53.5,2.422e+06,6.058e+03,1.339e+05,2.562e+06
55.0,2.900e+06,1.021e+04,1.525e+05,3.063e+06
56.5,3.030e+06,1.984e+04,1.569e+05,3.207e+06
58.0,2.826e+06,2.726e+04,1.549e+05,3.008e+06
59.6,2.259e+06,2.678e+04,1.448e+05,2.430e+06
61.1,1.594e+06,2.212e+04,1.273e+05,1.744e+06
62.6,9.886e+05,1.695e+04,1.027e+05,1.108e+06
64.1,5.836e+05,1.411e+04,8.012e+04,6.778e+05
65.7,3.804e+05,1.397e+04,6.570e+04,4.600e+05
67.2,2.843e+05,1.587e+04,5.853e+04,3.587e+05
68.7,2.390e+05,1.891e+04,5.626e+04,3.141e+05
70.3,2.113e+05,2.128e+04,5.357e+04,2.862e+05
71.8,1.954e+05,2.261e+04,4.908e+04,2.671e+05
73.3,1.867e+05,2.250e+04,4.416e+04,2.534e+05
74.8,1.803e+05,2.297e+04,4.107e+04,2.444e+05
76.4,1.729e+05,2.402e+04,3.874e+04,2.357e+05
77.9,1.699e+05,2.452e+04,3.538e+04,2.299e+05
79.4,1.611e+05,2.443e+04,3.055e+04,2.161e+05
80.9,1.527e+05,2.404e+04,2.481e+04,2.015e+05
82.5,1.418e+05,2.413e+04,2.075e+04,1.867e+05
84.0,1.345e+05,2.502e+04,1.859e+04,1.782e+05
85.5,1.323e+05,2.632e+04,1.715e+04,1.757e+05
87.1,1.297e+05,2.760e+04,1.634e+04,1.736e+05
88.6,1.259e+05,2.792e+04,1.549e+04,1.693e+05
90.1,1.221e+05,2.779e+04,1.488e+04,1.648e+05
91.6,1.179e+05,2.738e+04,1.483e+04,1.601e+05
93.2,1.159e+05,2.826e+04,1.568e+04,1.598e+05
94.7,1.120e+05,3.068e+04,1.635e+04,1.590e+05
96.2,1.103e+05,3.649e+04,1.805e+04,1.648e+05
97.7,1.076e+05,4.494e+04,2.004e+04,1.726e+05
99.3,1.040e+05,5.501e+04,2.148e+04,1.805e+05
100.8,1.049e+05,6.564e+04,2.154e+04,1.921e+05
102.3,1.060e+05,7.501e+04,1.922e+04,2.002e+05
103.9,1.058e+05,8.098e+04,1.511e+04,2.019e+05
105.4,1.096e+05,8.885e+04,1.247e+04,2.109e+05
106.9,1.173e+05,1.040e+05,1.267e+04,2.340e+05
108.4,1.181e+05,1.218e+05,1.385e+04,2.538e+05
110.0,1.140e+05,1.408e+05,1.568e+04,2.705e+05
111.5,1.094e+05,1.580e+05,1.900e+04,2.864e+05
113.0,1.078e+05,1.660e+05,2.464e+04,2.984e+05
114.5,1.126e+05,1.526e+05,3.512e+04,3.003e+05
116.1,1.185e+05,1.211e+05,4.761e+04,2.872e+05
117.6,1.179e+05,8.813e+04,6.198e+04,2.680e+05
119.1,1.179e+05,6.321e+04,7.716e+04,2.583e+05
120.7,1.231e+05,4.704e+04,9.252e+04,2.627e+05
122.2,1.306e+05,3.826e+04,1.100e+05,2.789e+05
123.7,1.359e+05,3.477e+04,1.279e+05,2.985e+05
125.2,1.320e+05,3.497e+04,1.285e+05,2.955e+05
126.8,1.258e+05,3.679e+04,1.176e+05,2.802e+05
128.3,1.285e+05,4.007e+04,1.205e+05,2.891e+05
129.8,1.379e+05,4.545e+04,1.425e+05,3.258e+05
131.3,1.466e+05,5.216e+04,1.685e+05,3.673e+05
132.9,1.057e+05,3.897e+04,1.275e+05,2.722e+05
134.4,2.727e+04,7.229e+03,2.832e+04,6.283e+04
135.9,1.611e+04,3.076e+03,1.393e+04,3.312e+04
137.5,1.526e+04,3.917e+03,1.323e+04,3.240e+04
139.0,1.572e+04,4.881e+03,1.412e+04,3.472e+04
140.5,1.802e+04,6.094e+03,1.690e+04,4.101e+04
142.0,2.264e+04,8.294e+03,2.140e+04,5.234e+04
143.6,2.836e+04,1.085e+04,2.685e+04,6.606e+04
145.1,3.355e+04,1.268e+04,3.175e+04,7.797e+04
146.6,3.884e+04,1.411e+04,3.685e+04,8.980e+04
148.1,4.603e+04,1.606e+04,4.262e+04,1.047e+05
149.7,5.366e+04,1.798e+04,4.813e+04,1.198e+05
151.2,6.269e+04,2.026e+04,5.546e+04,1.384e+05
152.7,7.066e+04,2.178e+04,6.038e+04,1.528e+05
154.3,7.806e+04,2.287e+04,6.430e+04,1.652e+05
155.8,8.614e+04,2.395e+04,6.862e+04,1.787e+05
157.3,9.525e+04,2.507e+04,7.310e+04,1.934e+05
158.8,1.041e+05,2.572e+04,7.493e+04,2.048e+05
160.4,1.138e+05,2.631e+04,7.561e+04,2.158e+05
161.9,1.179e+05,2.658e+04,7.404e+04,2.185e+05
163.4,1.234e+05,2.807e+04,7.533e+04,2.268e+05
165.0,1.161e+05,2.624e+04,6.896e+04,2.113e+05
166.5,1.087e+05,2.483e+04,6.503e+04,1.985e+05
168.0,1.049e+05,2.315e+04,6.098e+04,1.890e+05
169.5,9.528e+04,1.928e+04,5.245e+04,1.670e+05
171.1,8.667e+04,1.844e+04,5.003e+04,1.551e+05
172.6,7.827e+04,1.749e+04,4.735e+04,1.431e+05
174.1,7.122e+04,1.626e+04,4.469e+04,1.322e+05
175.6,6.668e+04,1.545e+04,4.329e+04,1.254e+05
177.2,5.961e+04,1.406e+04,3.988e+04,1.135e+05
178.7,5.493e+04,1.319e+04,3.699e+04,1.051e+05
180.2,5.006e+04,1.230e+04,3.414e+04,9.650e+04
181.8,4.361e+04,1.108e+04,3.005e+04,8.474e+04
183.3,3.704e+04,9.081e+03,2.443e+04,7.054e+04
184.8,3.066e+04,7.229e+03,1.996e+04,5.785e+04
186.3,2.563e+04,6.739e+03,1.824e+04,5.060e+04
187.9,2.006e+04,6.088e+03,1.563e+04,4.178e+04
189.4,1.548e+04,5.436e+03,1.290e+04,3.381e+04
190.9,1.184e+04,4.499e+03,1.029e+04,2.662e+04
192.4,8.662e+03,3.511e+03,7.834e+03,2.001e+04
194.0,6.553e+03,2.745e+03,6.037e+03,1.534e+04
195.5,4.898e+03,2.176e+03,4.627e+03,1.170e+04
197.0,3.617e+03,1.843e+03,3.646e+03,9.105e+03
198.6,2.812e+03,1.604e+03,2.990e+03,7.406e+03
